Wavelength (um),Transmission (%)
0.12328467394420661,5.75
0.12378195643709956,11.5
0.12428124477443228,17.25
0.12478254704700219,23.0
0.12528587137824182,28.75
0.12579122592435055,34.5
0.12629861887442667,40.25
0.12680805845060006,46.0
0.12731955290816555,51.75
0.12783311053571655,57.5
0.12834873965527957,63.25
0.12886644862244875,64.0
0.1293862458265216,64.75
0.12990813969063478,65.5
0.13043213867190054,65.6418918918919
0.13095825126154387,65.78378378378378
0.1314864859850401,65.92567567567568
0.132016851402253,66.06756756756756
0.13254935610757348,66.20945945945947
0.1330840087300589,66.35135135135135
0.13362081793357292,66.49324324324324
0.13415979241692574,66.63513513513513
0.13470094091401538,66.77702702702703
0.13524427219396878,66.91891891891892
0.13578979506128436,67.0608108108108
0.13633751835597435,67.20270270270271
0.13688745095370808,67.3445945945946
0.1374396017659561,67.48648648648648
0.1379939797401341,67.62837837837837
0.13855059385974847,67.77027027027027
0.13910945314454126,67.91216216216216
0.13967056665063693,68.05405405405406
0.14023394347068863,68.19594594594594
0.14079959273402587,68.33783783783784
0.14136752360680227,68.47972972972973
0.14193774529214423,68.62162162162163
0.14251026703029981,68.76351351351352
0.14308509809878883,68.9054054054054
0.1436622478125529,69.04729729729729
0.1442417255241066,69.1891891891892
0.14482354062368882,69.33108108108108
0.14540770253941504,69.47297297297297
0.14599422073743018,69.61486486486487
0.14658310472206176,69.75675675675676
0.14717436403597425,69.89864864864865
0.1477680082603234,70.04054054054053
0.14836404701491163,70.18243243243244
0.14896248995834394,70.32432432432432
0.14956334678818436,70.46621621621622
0.15016662724111315,70.6081081081081
0.1507723410930846,70.75
0.15138049815948532,71.4659090909091
0.15199110829529336,72.18181818181819
0.15260418139523807,72.89772727272728
0.15321972739396014,73.61363636363636
0.15383775626617285,74.32954545454545
0.15445827802682352,75.04545454545455
0.15508130273125587,75.76136363636364
0.1557068404753731,76.47727272727273
0.15633490139580122,77.19318181818181
0.15696549567005352,77.9090909090909
0.1575986335166954,78.625
0.15823432519551003,79.3409090909091
0.1588725810076645,80.05681818181819
0.15951341129587682,80.77272727272728
0.16015682644458354,81.48863636363636
0.160802836880108,82.20454545454545
0.16145145307082923,82.92045454545455
0.16210268552735163,83.63636363636364
0.1627565448026754,84.35227272727273
0.1634130414923673,85.06818181818181
0.16407218623473258,85.7840909090909
0.1647339897109873,86.5
0.16539846264543134,86.58333333333333
0.16606561580562226,86.66666666666667
0.1667354600025497,86.75
0.1674080060908108,86.83333333333333
0.1680832649687858,86.91666666666667
0.16876124757881475,87.0
0.169441964907375,87.08333333333333
0.17012542798525887,87.16666666666667
0.17081164788775283,87.25
0.17150063573481658,87.33333333333333
0.1721924026912635,87.41666666666667
0.1728869599669415,87.5
0.17358431881691463,87.58333333333333
0.17428449054164552,87.66666666666667
0.17498748648717846,87.75
0.17569331804532332,88.15
0.17640199665383996,88.55
0.17711353379662395,88.95
0.17782794100389226,89.35
0.17854522985237037,89.75
0.1792654119654797,89.84210526315789
0.1799884990135261,89.9342105263158
0.18071450271388878,90.0263157894737
0.18144343483121053,90.11842105263158
0.182175307177588,90.21052631578948
0.1829101316127632,90.30263157894737
0.18364792004431585,90.39473684210526
0.1843886844278561,90.48684210526316
0.1851324367672185,90.57894736842104
0.1858791891146564,90.67105263157896
0.18662895357103715,90.76315789473684
0.18738174228603838,90.85526315789474
0.18813756745834487,90.94736842105263
0.18889644133584596,91.03947368421052
0.18965837621583448,91.13157894736842
0.19042338444520548,91.2236842105263
0.19119147842065679,91.31578947368422
0.19196267058888963,91.40789473684211
0.19273697344681043,91.5
0.19351439954173322,91.54166666666667
0.19429496147158304,91.58333333333333
0.1950786718851001,91.625
0.19586554348204469,91.66666666666669
0.19665558901340296,91.70833333333333
0.1974488212815937,91.75
0.19824525314067556,91.79166666666667
0.19904489749655555,91.83333333333334
0.19984776730719805,91.875
0.20065387558283493,91.91666666666666
0.2014632353861761,91.95833333333333
0.20227585983262153,92.0
0.20309176209047355,92.04166666666667
0.20391095538115042,92.08333333333331
0.20473345297940024,92.125
0.20555926821351642,92.16666666666667
0.20638841446555367,92.20833333333333
0.20722090517154446,92.25
0.20805675382171704,92.26075268817205
0.20889597396071427,92.27150537634408
0.20973857918781244,92.28225806451613
0.21058458315714237,92.29301075268819
0.21143399957791012,92.30376344086022
0.2122868422146195,92.31451612903226
0.21314312488729484,92.3252688172043
0.21400286147170527,92.33602150537635
0.21486606589958934,92.34677419354838
0.2157327521588806,92.35752688172043
0.21660293429393476,92.36827956989248
0.21747662640575685,92.37903225806451
0.21835384265223007,92.38978494623655
0.21923459724834468,92.40053763440861
0.2201189044664291,92.41129032258064
0.22100677863638038,92.42204301075269
0.22189823414589713,92.43279569892474
0.22279328544071225,92.44354838709677
0.22369194702482695,92.45430107526883
0.22459423346074622,92.46505376344086
0.22550015936971432,92.4758064516129
0.226409739431952,92.48655913978494
0.2273229883868945,92.49731182795699
0.22823992103342983,92.50806451612904
0.22916055223013934,92.51881720430107
0.2300848968955379,92.52956989247312
0.231012970008316,92.54032258064515
0.23194478660758225,92.55107526881719
0.23288036179310728,92.56182795698925
0.23381971072556826,92.5725806451613
0.2347628486267946,92.58333333333333
0.2357097907800149,92.59408602150538
0.23666055253010398,92.60483870967744
0.23761514928383232,92.61559139784947
0.23857359651011503,92.6263440860215
0.23953590974026304,92.63709677419355
0.24050210456823432,92.64784946236558
0.24147219665088698,92.65860215053763
0.24244620170823286,92.66935483870968
0.243424135523692,92.68010752688173
0.2444060139443489,92.69086021505376
0.24539185288120877,92.7016129032258
0.24638166830945588,92.71236559139786
0.247375476268712,92.72311827956989
0.24837329286329668,92.73387096774194
0.24937513426248786,92.74462365591398
0.2503810167007841,92.75537634408602
0.2513909564781679,92.76612903225808
0.25240496996036915,92.77688172043011
0.2534230735791309,92.78763440860214
0.25444528383247556,92.79838709677419
0.25547161728497214,92.80913978494624
0.2565020905680045,92.81989247311827
0.25753672038004133,92.83064516129032
0.25857552348690616,92.84139784946237
0.2596185167220496,92.8521505376344
0.26066571698682167,92.86290322580643
0.26171714125074597,92.8736559139785
0.2627728065517945,92.88440860215054
0.2638327299966641,92.89516129032258
0.26489692876105275,92.90591397849462
0.2659654200899393,92.91666666666669
0.26703822129786153,92.92741935483872
0.2681153497691977,92.93817204301075
0.2691968229584477,92.9489247311828
0.2702826583905163,92.95967741935483
0.27137287366099666,92.97043010752688
0.272467486436456,92.98118279569893
0.27356651445472147,92.99193548387096
0.27466997552516764,93.00268817204301
0.2757778875290053,93.01344086021504
0.27689026841957115,93.0241935483871
0.2780071362226186,93.03494623655914
0.27912850903660985,93.04569892473118
0.2802544050330095,93.05645161290323
0.28138484245657863,93.06720430107526
0.28251983962567057,93.07795698924733
0.28365941493252783,93.08870967741936
0.28480358684358015,93.09946236559139
0.2859523738997436,93.11021505376344
0.287105794716721,93.12096774193549
0.2882638679853039,93.13172043010752
0.2894266124716751,93.14247311827957
0.29059404701771296,93.15322580645162
0.29176619054129654,93.16397849462365
0.29294306203661247,93.17473118279568
0.29412468057446245,93.18548387096774
0.2953110653025723,93.19623655913979
0.2965022354459025,93.20698924731182
0.2976982103069595,93.21774193548387
0.29889900926610835,93.22849462365593
0.30010465178188733,93.23924731182797
0.30131515739132264,93.25
0.30253054571024546,93.2614503816794
0.30375083643360934,93.27290076335878
0.3049760493358098,93.28435114503817
0.30620620427100465,93.29580152671755
0.3074413211734356,93.30725190839695
0.3086814200577513,93.31870229007633
0.30992652101933166,93.33015267175571
0.3111766442346137,93.34160305343511
0.3124318099614183,93.3530534351145
0.3136920385392786,93.3645038167939
0.31495735038976924,93.3759541984733
0.31622776601683794,93.38740458015268
0.31750330600713705,93.39885496183206
0.31878399103035776,93.41030534351145
0.32006984183956433,93.42175572519083
0.32136087927153145,93.43320610687023
0.3226571242470808,93.44465648854961
0.3239585977714207,93.45610687022901
0.32526532093448624,93.4675572519084
0.32657731491128117,93.47900763358778
0.32789460096222106,93.49045801526717
0.3292172004334775,93.50190839694656
0.33054513475732455,93.51335877862596
0.3318784254524854,93.52480916030532
0.3332170941244818,93.53625954198475
0.33456116246598355,93.54770992366412
0.3359106522571602,93.55916030534351
0.33726558536603424,93.5706106870229
0.33862598374883496,93.58206106870229
0.339991869450355,93.59351145038168
0.34136326460430677,93.60496183206106
0.3427401914336816,93.61641221374046
0.3441226722511097,93.62786259541984
0.3455107294592219,93.63931297709924
0.3469043855510124,93.65076335877862
0.3483036631102034,93.66221374045801
0.34970858481161116,93.67366412213741
0.3511191734215131,93.68511450381678
0.35253545179801743,93.6965648854962
0.35395744289143266,93.70801526717557
0.3553851697446402,93.71946564885496
0.35681865549346703,93.73091603053436
0.35825792336706186,93.74236641221374
0.35970299668827005,93.75381679389314
0.3611538988740126,93.76526717557252
0.36261065343566523,93.77671755725191
0.3640732839794393,93.7881679389313
0.3655418142067647,93.79961832061069
0.36701626791467346,93.81106870229007
0.3684966689961856,93.82251908396947
0.3699830414406965,93.83396946564885
0.3714754093343651,93.84541984732823
0.37297379686050497,93.85687022900765
0.37447822829997557,93.86832061068702
0.37598872803157585,93.87977099236642
0.3775053205324394,93.89122137404581
0.37902803037843114,93.9026717557252
0.3805568822445454,93.91412213740458
0.382091900905306,93.92557251908397
0.38363311123516736,93.93702290076335
0.38518053820891784,93.94847328244275
0.3867342069020845,93.95992366412214
0.3882941424913394,93.97137404580153
0.3898603702549073,93.98282442748092
0.3914329155729755,93.9942748091603
0.3930118039281053,94.00572519083968
0.39459706090564467,94.01717557251908
0.3961887121941431,94.02862595419847
0.39778678358576725,94.04007633587784
0.39939130097671977,94.05152671755727
0.40100229036765866,94.06297709923665
0.4026197778641179,94.07442748091603
0.4042437896769316,94.08587786259542
0.405874352122658,94.0973282442748
0.4075114916240059,94.1087786259542
0.4091552347102635,94.12022900763358
0.4108056080177275,94.13167938931298
0.41246263829013524,94.14312977099236
0.4141263523790976,94.15458015267176
0.41579677724453507,94.16603053435114
0.4174739399551132,94.17748091603053
0.4191578676886828,94.18893129770993
0.4208485877327189,94.2003816793893
0.42254612748476394,94.21183206106872
0.4242505144528714,94.22328244274809
0.4259617762560516,94.23473282442748
0.4276799406247191,94.24618320610688
0.4294050354011421,94.25763358778626
0.4311370885398939,94.26908396946565
0.4328761281083058,94.28053435114504
0.43462218228692145,94.29198473282443
0.4363752793699542,94.30343511450381
0.4381354477657447,94.31488549618321
0.4399027159972228,94.32633587786259
0.44167711270236776,94.33778625954199
0.4434586666346741,94.34923664122138
0.4452474066636162,94.36068702290075
0.44704336177511683,94.37213740458017
0.4488465610720172,94.38358778625954
0.4506570337745474,94.39503816793894
0.45247480922080097,94.40648854961833
0.45429991686720966,94.41793893129771
0.4561323862890214,94.4293893129771
0.4579722471807789,94.44083969465649
0.45981952935680115,94.45229007633588
0.46167426275166656,94.46374045801527
0.46353647742069803,94.47519083969466
0.4654062035404499,94.48664122137404
0.4672834714091972,94.49809160305344
0.46916831144742616,94.50954198473282
0.47106075419832755,94.5209923664122
0.4729608303282915,94.5324427480916
0.47486857062740456,94.54389312977099
0.4767840060099483,94.55534351145039
0.4787071675149009,94.56679389312978
0.48063808630643906,94.57824427480917
0.4825767936744444,94.58969465648855
0.4845233210350092,94.60114503816794
0.4864776999309465,94.61259541984732
0.48843996203230045,94.62404580152672
0.4904101391368599,94.6354961832061
0.4923882631706739,94.6469465648855
0.49437436618856856,94.65839694656489
0.49636848037466674,94.66984732824427
0.4983706380429095,94.68129770992365
0.5003808716375798,94.69274809160305
0.5023992137338286,94.70419847328245
0.5044256970382016,94.71564885496181
0.5064603543891709,94.72709923664124
0.5085032187576654,94.7385496183206
0.5105543232476067,94.75
0.5126137010964441,94.75178571428572
0.5146813856756944,94.75357142857143
0.5167574104914816,94.75535714285714
0.5188418091850807,94.75714285714287
0.5209346155334628,94.75892857142856
0.5230358634498418,94.76071428571429
0.5251455869842242,94.7625
0.5272638203239612,94.76428571428572
0.5293905977943031,94.76607142857142
0.5315259538589537,94.76785714285714
0.533669923120631,94.76964285714286
0.5358225403216265,94.77142857142857
0.5379838403443685,94.77321428571429
0.5401538582119881,94.775
0.5423326290888852,94.77678571428571
0.5445201882813001,94.77857142857144
0.5467165712378841,94.78035714285713
0.5489218135502748,94.78214285714286
0.551135950953673,94.78392857142858
0.5533590193274207,94.78571428571429
0.5555910546955839,94.7875
0.5578320932275352,94.78928571428571
0.5600821712385412,94.79107142857143
0.5623413251903492,94.79285714285714
0.5646095916917793,94.79464285714286
0.5668870074993178,94.79642857142858
0.5691736095177118,94.79821428571428
0.5714694348005684,94.80000000000001
0.5737745205509543,94.8017857142857
0.5760889041219988,94.80357142857143
0.5784126230174991,94.80535714285715
0.5807457148925286,94.80714285714286
0.5830882175540464,94.80892857142857
0.5854401689615102,94.81071428571428
0.5878016072274913,94.8125
0.5901725706182924,94.81428571428572
0.5925530975545678,94.81607142857143
0.5949432266119454,94.81785714285714
0.5973429965216527,94.81964285714285
0.5997524461711433,94.82142857142858
0.602171614604728,94.82321428571427
0.6046005410242078,94.825
0.6070392647895073,94.82678571428572
0.6094878254193147,94.82857142857142
0.611946262591721,94.83035714285714
0.6144146161448629,94.83214285714286
0.6168929260775694,94.83392857142857
0.6193812325500082,94.83571428571429
0.6218795758843385,94.8375
0.6243879965653625,94.83928571428571
0.6269065352411836,94.84107142857142
0.6294352327238626,94.84285714285716
0.631974129990081,94.84464285714284
0.6345232681818042,94.84642857142858
0.6370826886069483,94.84821428571429
0.6396524327400495,94.85
0.642232542222936,94.85178571428571
0.6448230588654031,94.85357142857143
0.6474240246458906,94.85535714285714
0.650035481712163,94.85714285714286
0.6526574723819928,94.85892857142858
0.6552900391438452,94.86071428571428
0.6579332246575681,94.8625
0.6605870717550821,94.86428571428573
0.6632516234410759,94.86607142857142
0.6659269228937017,94.86785714285715
0.6686130134652758,94.86964285714286
0.6713099386829807,94.87142857142857
0.6740177422495713,94.87321428571428
0.6767364680440822,94.875
0.6794661601225381,94.87678571428572
0.6822068627186698,94.87857142857143
0.6849586202446292,94.88035714285714
0.6877214772917095,94.88214285714285
0.6904954786310685,94.88392857142857
0.6932806692144525,94.8857142857143
0.6960770941749264,94.88749999999999
0.6988847988276038,94.88928571428572
0.7017038286703828,94.89107142857142
0.7045342293846814,94.89285714285714
0.7073760468361788,94.89464285714286
0.7102293270755591,94.89642857142857
0.7130941163392568,94.89821428571429
0.7159704610502057,94.9
0.7188584078185923,94.90178571428571
0.7217580034426102,94.90357142857142
0.7246692949092186,94.90535714285714
0.7275923293949044,94.90714285714287
0.7305271542664454,94.90892857142856
0.7334738170816792,94.91071428571429
0.7364323655902727,94.9125
0.739402847734497,94.91428571428571
0.7423853116500035,94.91607142857143
0.7453798056666037,94.91785714285714
0.7483863783090533,94.91964285714286
0.7514050782978373,94.92142857142858
0.7544359545499616,94.92321428571428
0.7574790561797431,94.925
0.760534432499607,94.92678571428571
0.7636021330208859,94.92857142857144
0.7666822074546215,94.93035714285713
0.7697747057123712,94.93214285714286
0.7728796779070158,94.93392857142857
0.7759971743535721,94.93571428571428
0.7791272455700078,94.9375
0.7822699422780611,94.93928571428572
0.7854253154040614,94.94107142857143
0.7885934160797555,94.94285714285712
0.7917742956431357,94.94464285714285
0.7949680056392715,94.94642857142857
0.7981745978211461,94.94821428571429
0.801394124150493,94.95000000000002
0.8046266367986401,94.9517857142857
0.8078721881473532,94.95357142857142
0.8111308307896871,94.95535714285714
0.8144026175308353,94.95714285714286
0.8176876013889876,94.95892857142857
0.8209858355961883,94.96071428571429
0.8242973735991993,94.9625
0.8276222690603662,94.9642857142857
0.8309605758584871,94.96607142857142
0.8343123480896866,94.96785714285714
0.8376776400682919,94.96964285714286
0.8410565063277133,94.97142857142859
0.8444490016213274,94.97321428571428
0.8478551809233652,94.975
0.8512750994298017,94.97678571428571
0.8547088125592514,94.97857142857143
0.858156375953866,94.98035714285714
0.8616178454802359,94.98214285714286
0.8650932772302957,94.98392857142858
0.8685827275222332,94.98571428571427
0.8720862529014012,94.9875
0.875603910141236,94.98928571428571
0.8791357562441741,94.99107142857143
0.8826818484425789,94.99285714285716
0.8862422441996668,94.99464285714285
0.8898170012104373,94.99642857142857
0.8934061774026112,94.99821428571428
0.8970098309375656,95.0
0.9006280202112785,94.98333333333333
0.9042608038552746,94.96666666666667
0.9079082407375754,94.95000000000002
0.9115703899636534,94.93333333333334
0.9152473108773891,94.91666666666667
0.9189390630620333,94.9
0.9226457063411727,94.88333333333333
0.9263673007796992,94.86666666666666
0.9301039066847832,94.85
0.93385558460685,94.83333333333333
0.9376223953405625,94.81666666666666
0.9414043999258057,94.80000000000001
0.9452016596486759,94.78333333333333
0.9490142360424729,94.76666666666667
0.9528421908886988,94.75
0.9566855862180578,94.75
0.9605444843114621,94.75
0.9644189477010409,94.75
0.9683090391711536,94.75
0.9722148217594073,94.75
0.9761363587576782,94.75
0.980073713713138,94.75
0.9840269504292826,94.75
0.9879961329669659,94.75
0.9919813256454388,94.75
0.9959825930433919,94.75
1.0,94.75
1.004033611615974,94.75
1.0080834932546172,94.75
1.0121497105428807,94.75
1.0162323293724318,94.75
1.0203314159007169,94.75
1.0244470365520373,94.75
1.0285792580186244,94.75
1.0327281472617182,94.75
1.036893771512657,94.75
1.0410761982739616,94.75
1.0452754953204337,94.75
1.0494917307002518,94.75
1.0537249727360731,94.75
1.0579752900261432,94.75
1.0622427514454067,94.75
1.0665274261466213,94.75
1.0708293835614817,94.75
1.0751486934017416,94.75
1.079485425660346,94.75
1.083839650612565,94.75
1.0882114388171291,94.75
1.0926008611173783,94.75
1.097007988642405,94.75
1.101432892808209,94.75
1.105875645318857,94.75
1.110336318167638,94.75
1.1148149836382373,94.75
1.1193117143059026,94.75
1.1238265830386227,94.75
1.1283596629983084,94.75
1.1329110276419747,94.75
1.1374807507229372,94.75
1.142068906292,94.75
1.1466755686986623,94.75
1.1513008125923194,94.75
1.1559447129234723,94.75
1.1606073449449443,94.75
1.1652887842130997,94.75
1.1699891065890657,94.75
1.1747083882399671,94.75
1.1794467056401543,94.75
1.1842041355724466,94.75
1.1889807551293767,94.75
1.1937766417144364,94.75
1.198591873043335,94.75
1.2034265271452547,94.75
1.208280682364119,94.75
1.2131544173598607,94.75
1.2180478111096935,94.75
1.2229609429093982,94.75
1.2278938923746,94.75
1.232846739442066,94.75
1.2378195643709957,94.75
1.2428124477443228,94.75
1.247825470470022,94.75
